1808
1826
1659
1751
1582
1676
1489
1589
1410
1580
1392
1533
1380
1497
1345
1508
1336
1470
1313
1451
1312
1465
1289
1454
1301
1451
1263
1424
1264
1393
1280
1431
1281
1438
1296
1465
1302
1466
1323
1477
1328
1472
1342
1500
1355
1511
1375
1535
1406
1558
1405
1593
1430
1610
1455
1601
1471
1621
1477
1632
1494
1629
1474
1635
1493
1648
1520
1677
1520
1666
1517
1680
1503
1698
1610
1722
1581
1729
1513
1654
1497
1648
1515
1696
1554
1677
1438
1863
2369
2493
2208
1770
1507
1677
1527
1655
1517
1671
1535
1733
1579
1723
1622
1776
1637
1783
1644
1808
1687
1856
1744
1930
1798
1996
1878
2074
1949
2117
1989
2106
1910
2006
1806
1923
1745
1882
1715
1856
1707
1870
1715
1869
1727
1882
1731
1890
1746
1889
1737
1915
1745
1911
1771
1903
1767
1911
1739
1890
1734
1909
1750
1884
1747
1901
1730
1900
1751
1876
1709
1840
1691
1843
1674
1847
1661
1807
1631
1775
1636
1805
1616
1753
1600
1741
1600
1746
1557
1677
1506
1635
1457
1535
1383
1485
1310
1415
1229
1344
1183
1307
1169
1266
1090
1229
1071
1185
1013
1165
994
1174
1080
1207
1034
1187
944
1054
862
1009
848
1007
838
995
841
905
1056
1962
1793
1387
849
977
830
974
829
994
848
1041
860
995
890
1072
906
1117
927
1042
859
1017
811
978
737
883
702
886
710
912
755
902
688
766
501
578
367
494
313
497
362
507
382
576
432
629
471
645
497
697
582
761
637
830
700
887
765
935
815
986
857
1074
937
1150
1017
1200
1074
1262
1134
1341
1181
1392
1269
1454
1322
1488
1359
1532
1379
1535
1418
1586
1447
1636
1471
1670
1505
1697
1557
1715
1586
1794
1630
1829
1677
1851
1712
1856
1728
1897
1745
1911
1771
1971
1900
2087
1914
2112
1904
1998
1797
1939
1775
1945
1792
1968
1808
1897
2019
2526
2555
2510
2113
1931
1794
1949
1787
1929
1793
1923
1778
1953
1819
1961
1813
1959
1825
1980
1837
2007
1856
2075
1932
2117
1997
2170
2047
2223
2089
2194
1962
2067
1839
1903
1689
1842
1676
1808
1648
1810
1645
1827
1634
1819
1650
1806
1664
1826
1687
1852
1697
1881
1712
1869
1738
1897
1712
1886
1702
1856
1713
1873
1707
1872
1697
1875
1705
1888
1734
1893
1720
1886
1744
1911
1749
1933
1765
1941
1777
1934
1770
1921
1776
1916
1776
1936
1778
1935
1755
1936
1781
1927
1766
1918
1745
1909
1731
1879
1706
1862
1690
1883
1712
1889
1712
1900
1733
1899
1732
1920
1733
1931
1761
1925
1771
1971
1840
2045
1905
2087
1850
1925
1683
1813
1646
1779
1595
1773
1571
1662
1835
2511
2477
2273
1599
1680
1527
1677
1505
1657
1493
1675
1529
1682
1535
1751
1584
1742
1564
1739
1584
1744
1607
1785
1644
1844
1692
1895
1755
1936
1794
1966
1790
1894
1660
1766
1535
1680
1490
1663
1488
1675
1475
1648
1467
1661
1488
1658
1461
1632
1456
1645
1459
1621
1456
1613
1455
1618
1440
1638
1456
1621
1456
1616
1455
1616
1427
1575
1409
1583
1395
1616
1411
1601
1409
1600
1435
1617
1447
1610
1442
1616
1459
1634
1450
1645
1456
1625
1456
1631
1460
1618
1425
1611
1453
1629
1445
1606
1443
1595
1392
1535
1403
1572
1411
1574
1415
1594
1442
1610
1424
1623
1455
1621
1534
1721
1577
1773
1589
1669
1449
1617
1407
1599
1424
1613
1451
1535
1456
2167
2455
2363
1650
1588
1408
1600
1396
1599
1425
1604
1447
1613
1459
1630
1465
1646
1504
1686
1524
1691
1522
1716
1586
1765
1603
1821
1693
1904
1753
1946
1761
1895
1690
1807
1589
1727
1535
1680
1520
1706
1515
1684
1519
1682
1488
1658
1493
1651
1466
1653
1459
1646
1446
1616
1461
1648
1471
1641
1461
1633
1446
1654
1446
1607
1441
1658
1456
1622
1511
1659
1483
1591
1471
1636
1454
1629
1443
1600
1447
1616
1427
1616
1436
1611
1460
1619
1461
1629
1457
1663
1511
1678
1520
1714
1535
1727
1535
1712
1552
1791
1644
1811
1646
1755
1535
1648
1441
1649
1466
1643
1482
1639
1415
1630
1936
2497
2310
1856
1395
1617
1381
1567
1420
1599
1424
1602
1424
1614
1467
1647
1466
1665
1519
1703
1533
1700
1556
1744
1611
1802
1649
1840
1714
1883
1754
1904
1712
1821
1598
1698
1488
1648
1469
1637
1467
1645
1436
1570
1297
1394
1200
1353
1193
1353
1168
1354
1180
1387
1242
1425
1229
1424
1232
1399
1197
1338
1177
1350
1182
1330
1151
1328
1168
1351
1203
1365
1205
1413
1239
1401
1267
1462
1307
1488
1335
1519
1357
1527
1389
1568
1424
1648
1488
1673
1522
1712
1535
1723
1535
1744
1561
1742
1583
1761
1606
1776
1680
1877
1741
1951
1756
1843
1616
1772
1606
1776
1616
1779
1631
1742
1632
2316
2514
2496
2033
1767
1584
1753
1583
1789
1596
1781
1606
1777
1584
1777
1632
1808
1664
1839
1680
1849
1711
1902
1776
1978
1836
2056
1921
2121
1951
2129
1936
2086
1825
1959
1741
1842
1679
1838
1648
1823
1662
1843
1669
1846
1679
1852
1668
1846
1653
1844
1696
1857
1681
1881
1686
1872
1686
1858
1684
1865
1667
1853
1680
1833
1657
1840
1634
1808
1643
1801
1623
1815
1625
1792
1626
1808
1633
1819
1649
1809
1648
1841
1665
1833
1638
1828
1635
1795
1616
1786
1609
1772
1600
1781
1598
1775
1584
1777
1601
1765
1614
1791
1598
1776
1603
1776
1596
1744
1586
1771
1591
1774
1601
1791
1615
1808
1682
1813
1643
1813
1535
1712
1503
1680
1470
1678
1487
1649
1421
1743
2192
2492
2229
1722
1392
1575
1374
1535
1383
1570
1371
1573
1387
1557
1360
1520
1362
1510
1360
1531
1360
1559
1395
1600
1451
1686
1527
1744
1598
1797
1625
1776
1582
1690
1441
1581
1387
1566
1383
1554
1382
1578
1412
1594
1428
1607
1407
1610
1430
1632
1424
1606
1424
1616
1423
1600
1411
1635
1451
1637
1489
1666
1507
1693
1520
1693
1535
1739
1535
1729
1568
1730
1566
1747
1594
1771
1616
1776
1621
1802
1618
1802
1633
1819
1649
1799
1654
1825
1636
1829
1670
1847
1674
1877
1680
1860
1667
1867
1707
1890
1715
1899
1718
1903
1744
1920
1744
1922
1744
1915
1754
1925
1744
1927
1749
1907
1741
1935
1833
2023
1833
2032
1801
1883
1696
1863
1659
1840
1661
1827
1615
1722
1766
2470
2509
2432
1777
1743
1580
1727
1535
1723
1527
1715
1535
1735
1570
1753
1597
1782
1631
1804
1615
1835
1666
1870
1727
1926
1793
1985
1830
2032
1883
2082
1906
2037
1784
1886
1648
1793
1616
1783
1616
1785
1601
1778
1610
1776
1561
1752
1568
1733
1535
1680
1523
1691
1488
1664
1470
1675
1487
1647
1419
1591
1411
1595
1395
1586
1415
1571
1392
1569
1373
1565
1351
1500
1344
1503
1327
1473
1279
1437
1265
1453
1260
1421
1226
1403
1215
1379
1210
1390
1200
1365
1171
1380
1200
1367
1234
1415
1223
1399
1232
1422
1252
1421
1273
1436
1283
1449
1307
1554
1337
1535
1375
1475
1277
1409
1207
1408
1236
1413
1281
1381
1254
1923
2368
2172
1435
1425
1198
1335
1138
1347
1171
1360
1205
1389
1178
1370
1221
1378
1222
1427
1264
1451
1296
1469
1322
1535
1360
1598
1439
1680
1488
1683
1503
1650
1427
1567
1328
1501
1296
1450
1297
1483
1311
1495
1321
1489
1293
1487
1314
1487
1339
1535
1381
1565
1407
1598
1435
1629
1467
1643
1456
1635
1462
1643
1474
1648
1461
1657
1472
1670
1498
1698
1510
1691
1515
1692
1532
1711
1530
1729
1535
1743
1572
1767
1573
1776
1594
1789
1616
1815
1621
1787
1613
1799
1605
1808
1621
1809
1616
1823
1632
1823
1645
1801
1649
1818
1654
1856
1745
1917
1744
1933
1696
1853
1645
1840
1653
1843
1669
1859
1609
1907
2317
2544
2477
2193
1662
1866
1655
1823
1637
1809
1622
1815
1631
1823
1655
1831
1648
1847
1675
1868
1693
1891
1715
1919
1762
1984
1825
2042
1882
2103
1919
2093
1866
1978
1742
1878
1689
1853
1671
1853
1691
1874
1679
1857
1682
1869
1680
1853
1667
1844
1657
1840
1680
1847
1680
1856
1668
1864
1678
1851
1655
1821
1664
1851
1671
1851
1680
1857
1680
1856
1642
1826
1635
1837
1631
1826
1649
1818
1657
1812
1645
1820
1650
1834
1648
1846
1657
1829
1653
1845
1658
1837
1648
1824
1626
1803
1619
1779
1605
1786
1616
1789
1607
1798
1621
1804
1616
1791
1616
1790
1600
1767
1600
1795
1621
1810
1673
1885
1686
1926
1680
1762
1566
1712
1510
1715
1532
1728
1535
1628
1631
2393
2480
2402
1725
1655
1462
1639
1423
1628
1428
1619
1434
1626
1454
1633
1437
1648
1445
1641
1450
1650
1472
1677
1515
1719
1573
1783
1645
1852
1695
1885
1702
1856
1610
1723
1488
1674
1439
1633
1442
1629
1440
1647
1456
1635
1469
1679
1474
1680
1489
1675
1488
1690
1505
1690
1514
1712
1535
1711
1534
1730
1531
1710
1530
1729
1535
1727
1535
1746
1573
1765
1572
1753
1566
1754
1584
1760
1589
1748
1582
1775
1601
1779
1601
1780
1609
1790
1599
1808
1627
1818
1635
1827
1648
1835
1644
1830
1659
1831
1631
1823
1629
1805
1639
1824
1619
1821
1634
1805
1621
1788
1618
1808
1621
1813
1680
1904
1687
1925
1687
1786
1557
1746
1535
1744
1557
1760
1573
1654
1566
2322
2480
2432
1766
1654
1489
1684
1470
1664
1462
1663
1471
1657
1477
1678
1481
1680
1501
1712
1513
1699
1525
1722
1535
1750
1595
1770
1622
1802
1648
1862
1665
1827
1579
1706
1479
1646
1437
1629
1421
1631
1446
1616
1443
1632
1429
1629
1408
1632
1391
1590
1395
1587
1379
1557
1360
1533
1339
1513
1335
1535
1333
1535
1355
1523
1329
1513
1328
1522
1360
1533
1338
1535
1347
1535
1351
1561
1362
1580
1367
1570
1382
1583
1374
1574
1376
1577
1389
1594
1391
1611
1411
1616
1423
1611
1375
1583
1398
1563
1396
1584
1386
1575
1383
1563
1365
1566
1425
1595
1399
1560
1317
1470
1218
1422
1220
1395
1195
1374
1122
1616
2103
2281
1569
1362
1107
1333
1138
1337
1168
1376
1174
1363
1182
1395
1214
1418
1242
1488
1312
1515
1347
1567
1383
1613
1459
1687
1535
1771
1600
1808
1648
1826
1588
1734
1505
1685
1482
1675
1515
1711
1511
1744
1525
1721
1535
1734
1557
1759
1581
1783
1610
1819
1632
1825
1653
1868
1686
1890
1702
1888
1700
1879
1713
1891
1699
1903
1719
1904
1714
1901
1711
1883
1711
1909
1727
1910
1729
1915
1718
1904
1712
1917
1744
1904
1738
1939
1735
1947
1757
1950
1751
1951
1757
1939
1759
1930
1744
1926
1729
1934
1736
1930
1741
1940
1744
1936
1744
1935
1754
1972
1757
1968
1706
1843
1637
1805
1587
1786
1605
1805
1604
1718
1744
2458
2497
2433
1765
1729
1572
1744
1569
1748
1535
1767
1584
1791
1619
1830
1637
1817
1648
1842
1647
1852
1681
1891
1722
1935
1804
2032
1869
2076
1875
2103
1899
2064
1789
1942
1713
1874
1672
1841
1643
1838
1647
1829
1647
1825
1638
1851
1650
1843
1659
1838
1642
1836
1651
1830
1621
1803
1606
1802
1600
1776
1561
1773
1554
1754
1535
1727
1519
1727
1511
1706
1503
1716
1517
1712
1508
1699
1506
1713
1535
1713
1527
1710
1532
1743
1525
1735
1535
1744
1554
1750
1573
1751
1535
1738
1520
1743
1535
1735
1557
1761
1563
1763
1564
1747
1575
1775
1583
1747
1591
1783
1588
1806
1682
1904
1717
1947
1710
1803
1591
1746
1561
1747
1554
1744
1530
1649
1705
2465
2477
2366
1661
1700
1503
1667
1471
1669
1456
1668
1493
1693
1491
1714
1519
1707
1510
1713
1509
1744
1557
1781
1616
1835
1671
1897
1732
1951
1777
1982
1778
1933
1655
1798
1556
1728
1517
1733
1507
1706
1527
1731
1529
1719
1553
1746
1557
1778
1570
1767
1585
1771
1581
1788
1584
1791
1590
1766
1576
1753
1581
1761
1569
1760
1570
1773
1562
1759
1574
1767
1577
1771
1591
1782
1602
1764
1584
1773
1582
1794
1584
1779
1574
1777
1584
1776
1580
1775
1583
1795
1583
1776
1582
1785
1573
1793
1587
1771
1584
1787
1615
1795
1613
1798
1602
1783
1587
1808
1616
1797
1626
1808
1633
1830
1713
1901
1702
1907
1646
1808
1585
1759
1570
1761
1535
1771
1513
1701
1943
2517
2437
2121
1502
1679
1479
1654
1457
1659
1463
1645
1452
1658
1454
1659
1484
1695
1505
1703
1506
1703
1494
1719
1556
1755
1589
1799
1658
1846
1680
1891
1677
1801
1561
1715
1470
1642
1425
1629
1418
1601
1419
1584
1393
1597
1392
1582
1405
1593
1408
1613
1425
1622
1443
1651
1436
1613
1410
1629
1423
1627
1424
1620
1424
1619
1402
1613
1424
1627
1418
1614
1430
1625
1431
1634
1436
1633
1413
1600
1375
1578
1392
1586
1378
1590
1386
1599
1397
1584
1389
1589
1390
1568
1362
1563
1360
1587
1382
1571
1383
1584
1392
1591
1421
1617
1421
1627
1465
1777
1535
1754
1573
1702
1519
1712
1495
1711
1519
1744
1568
1685
1682
2438
2480
2400
1685
1686
1507
1666
1488
1694
1491
1659
1455
1635
1435
1645
1437
1655
1494
1711
1509
1717
1563
1760
1586
1792
1630
1862
1708
1919
1744
1936
1744
1908
1653
1808
1535
1709
1498
1698
1501
1693
1509
1695
1504
1699
1495
1685
1483
1674
1482
1678
1469
1679
1488
1686
1488
1682
1495
1686
1488
1672
1488
1680
1457
1686
1483
1677
1474
1677
1472
1