4
1359
1325
1415
1355
1437
1350
1360
1235
1274
1181
1186
1216
1601
1837
1375
461
719
777
859
827
941
935
1071
1048
1152
1142
1231
1182
1248
1171
1264
1233
1355
1325
1430
1392
1470
1414
1455
1363
1402
1323
1400
1335
1424
1424
1497
1471
1559
1504
1573
1479
1520
1456
1511
1441
1511
1443
1518
1473
1557
1469
1487
1378
1395
1297
1328
1232
1279
1182
1243
1195
1303
1311
1391
1360
1392
1333
1408
1343
1409
1335
1357
1250
1269
1179
1207
1123
1382
1744
2096
1293
721
957
1107
1057
1135
1111
1201
1152
1233
1223
1325
1285
1409
1366
1435
1423
1573
1584
1712
1776
1983
2057
2214
2218
2288
2229
2262
2169
2215
2161
2258
2235
2322
2303
2347
2305
2333
2262
2307
2253
2286
2197
2224
2145
2175
2081
2134
2075
2134
2095
2155
2097
2142
2063
2109
2039
2098
2037
2139
2082
2130
2054
2090
1981
2032
1971
2021
1975
2014
1937
2000
1925
1997
1937
2081
2334
2442
2424
1808
1580
1865
1809
1885
1815
1869
1780
1830
1742
1794
1737
1790
1711
1764
1707
1783
1708
1744
1686
1711
1581
1599
1467
1441
1310
1297
1147
1158
1022
1034
923
960
870
898
797
831
734
795
709
762
691
747
670
743
670
705
598
637
560
592
511
571
483
536
419
455
320
241
0
0
0
0
0
0
0
0
0
0
0
0
0
0
0
0
0
0
0
0
0
0
0
0
0
0
0
0
0
0
0
0
0
0
0
0
0
0
0
0
0
0
0
0
0
0
0
0
0
0
0
0
0
0
0
88
146
299
332
487
541
720
784
933
939
1074
1073
1218
1235
1487
1594
1765
1834
1991
1995
2143
2126
2243
2259
2355
2366
2403
2415
2437
2448
2457
2461
2479
2490
2512
2524
2519
2502
2507
2507
2511
2512
2512
2518
2523
2521
2521
2526
2529
2523
2531
2528
2533
2532
2531
2535
2538
2535
2538
2540
2534
2535
2537
2535
2534
2534
2537
2531
2537
2534
2537
2533
2529
2533
2534
2530
2534
2531
2528
2527
2527
2532
2528
2528
2529
2522
2529
2519
2531
2523
2523
2519
2519
2522
2523
2522
2519
2518
2517
2517
2514
2515
2512
2517
2512
2510
2512
2507
2507
2502
2506
2509
2516
2527
2512
2498
2487
2483
2482
2481
2478
2477
2476
2469
2471
2461
2463
2465
2464
2461
2465
2467
2470
2466
2473
2466
2469
2459
2454
2446
2441
2418
2411
2375
2371
2336
2352
2317
2346
2296
2315
2247
2285
2218
2259
2191
2242
2176
2225
2167
2205
2130
2186
2099
2147
2079
2125
2061
2118
2055
2111
2055
2113
2032
2097
2027
2075
2000
2096
2023
2046
1978
2012
1919
2000
1950
1997
1930
1979
1910
1954
1894
1950
1888
2139
2367
2422
2083
1578
1743
1865
1817
1891
1823
1890
1835
1902
1840
1917
1851
1931
1863
1927
1887
2000
1986
2077
2027
2096
2032
2096
1995
2007
1875
1887
1776
1808
1748
1822
1767
1856
1809
1871
1809
1856
1793
1856
1780
1843
1776
1835
1781
1839
1776
1840
1776
1842
1775
1827
1762
1819
1763
1826
1771
1837
1787
1849
1792
1856
1798
1874
1811
1881
1839
1926
1861
1906
1855
1872
1808
1867
1810
1872
1807
1859
1802
1850
1783
1856
1898
2256
2412
2379
1535
1645
1744
1808
1761
1833
1766
1831
1799
1870
1829
1904
1855
1911
1857
1934
1904
2000
1985
2087
2032
2096
2032
2078
1975
1985
1879
1898
1808
1857
1806
1872
1821
1886
1831
1884
1823
1873
1819
1879
1811
1873
1829
1891
1835
1890
1821
1877
1811
1868
1809
1859
1807
1872
1813
1869
1808
1872
1817
1887
1834
1894
1837
1899
1841
1913
1884
1949
1872
1939
1825
1879
1821
1879
1815
1872
1806
1860
1806
1865
1805
1936
2183
2413
2391
1659
1523
1802
1745
1817
1760
1826
1767
1831
1795
1875
1831
1901
1840
1908
1856
1943
1933
2029
2001
2085
2025
2085
2007
2039
1942
1957
1865
1894
1820
1870
1810
1872
1815
1886
1835
1890
1823
1875
1808
1869
1805
1868
1815
1869
1808
1867
1795
1841
1776
1834
1773
1829
1769
1838
1786
1850
1797
1855
1808
1882
1817
1874
1823
1894
1831
1920
1887
1933
1865
1906
1814
1867
1809
1862
1807
1863
1797
1851
1795
1862
1799
2035
2336
2427
2154
1452
1638
1786
1728
1803
1754
1808
1744
1826
1794
1863
1823
1888
1821
1886
1842
1936
1927
2029
2000
2075
2005
2058
1984
2006
1904
1930
1837
1865
1791
1846
1787
1866
1813
1882
1823
1875
1818
1872
1808
1869
1810
1872
1808
1846
1792
1855
1786
1840
1779
1841
1778
1840
1792
1847
1794
1865
1809
1877
1822
1875
1831
1886
1839
1941
1891
1929
1872
1892
1822
1883
1826
1885
1813
1862
1808
1871
1802
1871
1850
2208
2404
2412
1680
1535
1737
1817
1765
1837
1777
1839
1791
1860
1817
1898
1855
1916
1867
1936
1904
2000
1990
2096
2055
2128
2047
2100
2018
2037
1939
1957
1856
1891
1819
1872
1817
1887
1829
1901
1834
1890
1831
1880
1819
1877
1822
1885
1818
1883
1810
1872
1805
1855
1793
1858
1797
1855
1791
1850
1797
1861
1811
1882
1830
1889
1828
1934
1887
1931
1874
1907
1818
1885
1822
1872
1813
1867
1802
1861
1808
1866
1814
2096
2371
2422
1959
1455
1667
1793
1730
1811
1755
1808
1744
1816
1777
1852
1802
1863
1810
1873
1835
1925
1911
2000
1982
2063
1998
2036
1967
1983
1871
1880
1763
1789
1713
1779
1740
1810
1763
1826
1775
1840
1775
1825
1756
1807
1745
1814
1754
1808
1735
1791
1712
1770
1698
1751
1687
1744
1680
1746
1695
1775
1714
1793
1733
1827
1779
1824
1775
1809
1731
1792
1743
1802
1744
1792
1727
1787
1725
1793
1733
1999
2319
2411
1900
1408
1639
1770
1719
1812
1776
1850
1802
1872
1808
1898
1851
1929
1870
1935
1897
1981
1969
2061
2014
2096
2022
2097
2029
2063
1953
1979
1886
1910
1835
1894
1827
1884
1825
1890
1835
1885
1818
1874
1814
1887
1827
1874
1833
1881
1807
1874
1806
1856
1795
1856
1798
1856
1789
1853
1806
1866
1840
1927
1866
1919
1863
1890
1823
1891
1833
1891
1827
1891
1830
1887
1830
1894
1905
2288
2406
2363
1568
1695
1797
1871
1823
1894
1839
1898
1851
1921
1878
1958
1902
1950
1898
1982
1955
2057
2016
2107
2055
2116
2053
2110
2032
2070
1970
1986
1895
1926
1851
1905
1853
1919
1869
1923
1859
1919
1867
1927
1870
1945
1894
1937
1867
1933
1859
1915
1851
1920
1859
1921
1869
1926
1877
1943
1919
1988
1917
1978
1888
1931
1891
1957
1888
1951
1903
1950
1887
1951
1889
1943
2070
2388
2422
2249
1535
1798
1840
1904
1873
1936
1872
1945
1879
1956
1904
1993
1946
1995
1936
2016
1998
2096
2074
2163
2128
2173
2107
2127
2034
2042
1942
1967
1869
1918
1837
1886
1832
1904
1850
1906
1840
1899
1825
1874
1808
1867
1787
1831
1759
1815
1744
1797
1719
1765
1699
1745
1679
1750
1683
1729
1709
1776
1693
1743
1671
1707
1629
1696
1638
1697
1636
1693
1630
1680
1627
1699
1711
2060
2352
2342
1402
1436
1582
1655
1604
1671
1621
1677
1633
1706
1663
1743
1701
1763
1716
1790
1758
1866
1856
1952
1930
1995
1922
1959
1874
1904
1804
1818
1741
1787
1725
1778
1727
1792
1728
1798
1740
1797
1733
1792
1740
1806
1754
1811
1758
1827
1770
1821
1763
1822
1767
1827
1771
1835
1785
1843
1805
1862
1809
1872
1819
1904
1871
1919
1861
1911
1818
1873
1823
1885
1827
1887
1818
1875
1821
1875
1822
1903
2089
2405
2434
2128
1454
1787
1776
1839
1807
1871
1814
1869
1840
1911
1877
1938
1891
1942
1903
1976
1968
2070
2064
2143
2091
2151
2081
2106
1999
2021
1917
1943
1867
1904
1841
1893
1845
1907
1857
1907
1847
1899
1830
1894
1827
1887
1838
1891
1840
1891
1815
1871
1802
1863
1808
1863
1808
1872
1814
1880
1829
1895
1833
1889
1837
1897
1840
1904
1856
1918
1902
1968
1890
1963
1853
1887
1831
1898
1835
1893
1837
1891
1828
1890
1829
1888
1856
2191
2409
2435
1936
1507
1712
1819
1763
1823
1775
1836
1777
1854
1813
1893
1834
1895
1837
1899
1872
1973
1968
2071
2038
2112
2038
2085
1993
2011
1903
1915
1827
1853
1776
1830
1774
1845
1794
1847
1786
1841
1775
1821
1765
1823
1766
1822
1763
1822
1762
1813
1749
1801
1741
1792
1721
1780
1720
1778
1726
1787
1728
1789
1730
1792
1729
1778
1728
1801
1759
1853
1805
1834
1789
1821
1744
1809
1744
1806
1741
1799
1741
1798
1744
1808
1748
1910
2214
2418
2291
1433
1494
1733
1681
1752
1707
1771
1719
1783
1744
1821
1776
1851
1787
1859
1825
1907
1895
1995
1970
2045
1996
2064
1983
2005
1905
1924
1836
1851
1762
1808
1750
1810
1760
1819
1771
1827
1759
1839
1796
1861
1790
1857
1806
1872
1823
1885
1827
1875
1809
1872
1813
1876
1825
1888
1840
1900
1842
1898
1854
1919
1865
1914
1867
1919
1890
1968
1903
1941
1887
1911
1853
1905
1842
1899
1840
1887
1818
1883
1814
1888
1845
2161
2384
2415
1793
1565
1728
1837
1781
1840
1796
1869
1815
1888
1839
1924
1871
1924
1870
1943
1917
2006
1990
2075
2044
2115
2063
2105
2027
2073
1968
1981
1872
1894
1817
1872
1808
1878
1830
1899
1840
1889
1827
1895
1840
1899
1840
1900
1829
1886
1822
1877
1808
1863
1804
1872
1824
1875
1813
1872
1826
1884
1827
1891
1837
1895
1853
1915
1856
1953
1917
1967
1891
1952
1870
1927
1859
1929
1870
1911
1845
1911
1845
1914
1866
1991
2210
2416
2390
1723
1599
1854
1811
1882
1823
1894
1830
1895
1842
1913
1859
1926
1878
1955
1916
2015
2012
2115
2092
2169
2115
2166
2098
2114
2018
2037
1947
1967
1867
1905
1846
1910
1851
1915
1856
1919
1843
1897
1831
1895
1840
1894
1837
1898
1836
1890
1834
1885
1808
1850
1791
1849
1799
1857
1790
1862
1808
1871
1808
1863
1796
1862
1808
1890
1867
1953
1885
1911
1845
1856
1808
1872
1814
1863
1797
1855
1776
1809
1744
1797
1769
2064
2343
2399
1701
1439
1616
1711
1655
1735
1673
1730
1667
1735
1703
1765
1702
1764
1711
1776
1753
1865
1853
1954
1933
2009
1968
2009
1933
1952
1861
1886
1783
1819
1747
1804
1749
1805
1746
1815
1764
1824
1769
1821
1763
1818
1783
1850
1791
1860
1808
1871
1819
1872
1813
1872
1814
1874
1825
1890
1833
1897
1841
1908
1850
1921
1862
1917
1876
1931
1893
1982
1917
1978
1920
1947
1887
1952
1891
1942
1872
1930
1865
1917
1865
1922
1889
2235
2413
2442
1958
1557
1738
1838
1787
1860
1808
1872
1815
1887
1854
1933
1888
1954
1886
1968
1930
2031
2023
2125
2085
2157
2103
2143
2070
2080
1977
1986
1905
1937
1872
1923
1872
1927
1891
1954
1899
1942
1875
1924
1869
1933
1870
1926
1872
1926
1863
1919
1850
1917
1844
1904
1847
1904
1846
1905
1859
1917
1859
1922
1861
1921
1869
1931
1859
1946
1919
1966
1901
1953
1839
1901
1843
1899
1833
1868
1791
1845
1776
1834
1776
1866
2089
2406
2409
1727
1391
1702
1667
1728
1679
1742
1680
1735
1696
1788
1730
1799
1748
1808
1750
1827
1814
1923
1907
1994
1946
2000
1936
1953
1859
1871
1776
1793
1712
1759
1689
1733
1691
1751
1700
1760
1705
1745
1688
1745
1686
1742
1685
1745
1692
1742
1687
1744
1685
1741
1680
1741
1668
1725
1667
1725
1671
1744
1695
1756
1699
1756
1743
1817
1730
1802
1710
1747
1702
1772
1709
1762
1717
1775
1705
1776
1727
1787
1941
2355
2401
1973
1365
1689
1701
1767
1731
1791
1741
1813
1744
1812
1770
1841
1793
1851
1808
1919
1900
2004
1979
2066
2032
2103
2033
2094
2000
2031
1915
1937
1851
1894
1821
1882
1836
1904
1854
1892
1829
1883
1826
1893
1833
1881
1840
1903
1834
1891
1829
1893
1821
1881
1840
1901
1841
1899
1847
1907
1872
1930
1905
1985
1913
1970
1893
1922
1872
1936
1872
1934
1871
1936
1874
1934
1879
1941
1984
2338
2417
2383
1645
1750
1856
1919
1878
1951
1894
1969
1915
1987
1954
2031
1970
2031
1974
2065
2065
2186
2171
2256
2214
2253
2207
2241
2166
2178
2074
2099
2006
2037
1973
2021
1951
2015
1963
2010
1935
1978
1915
1980
1909
1975
1911
1940
1890
1941
1881
1939
1862
1906
1847
1903
1838
1894
1830
1899
1839
1934
1879
1915
1859
1884
1808
1855
1794
1847
1779
1835
1766
1822
1766
1826
1767
1936
2191
2406
2263
1476
1571
1753
1707
1771
1697
1730
1653
1713
1674
1743
1698
1763
1697
1768
1733
1813
1770
1854
1819
1887
1839
1899
1811
1835
1725
1737
1630
1655
1579
1639
1575
1627
1569
1642
1593
1650
1590
1639
1586
1649
1611
1674
1616
1683
1629
1696
1630
1691
1638
1691
1638
1693
1648
1712
1674
1741
1711
1794
1738
1803
1741
1757
1698
1767
1712
1765
1712
1766
1708
1762
1708
1769
1728
2007
2352
2429
1966
1404
1630
1753
1699
1774
1725
1792
1738
1814
1791
1871
1825
1892
1840
1908
1878
1979
1970
2082
2047
2128
2071
2125
2032
2064
1957
1981
1885
1910
1840
1902
1840
1904
1860
1928
1867
1924
1856
1911
1849
1911
1853
1914
1865
1919
1853
1904
1840
1901
1824
1877
1821
1872
1809
1871
1827
1888
1851
1939
1872
1930
1852
1867
1809
1874
1813
1872
1799
1853
1801
1872
1818
1884
1835
2143
2403
2446
2135
1507
1719
1863
1807
1886
1834
1891
1836
1911
1878
1947
1899
1967
1910
1975
1947
2045
2042
2142
2119
2185
2123
2160
2091
2103
1997
2015
1919
1942
1856
1905
1845
1921
1867
1919
1867
1919
1853
1911
1840
1904
1836
1886
1830
1891
1811
1858
1791
1844
1791
1846
1780
1840
1774
1841
1776
1842
1820
1899
1824
1886
1781
1817
1757
1808
1755
1813
1744
1797
1721
1783
1727
1783
1802
2219
2402
2350
1389
1526
1653
1718
1663
1726
1669
1723
1669
1727
1673
1744
1701
1773
1729
1795
1767
1875
1872
1966
1920
1985
1913
1968
1877
1901
1802
1808
1721
1770
1696
1749
1693
1761
1696
1760
1699
1744
1680
1736
1681
1745
1701
1758
1702
1764
1701
1744
1674
1728
1674
1732
1665
1743
1695
1765
1741
1841
1775
1813
1757
1776
1715
1786
1729
1791
1738
1797
1738
1807
1754
1819
1754
2063
2363
2414
1853
1465
1655
1781
1740
1821
1770
1845
1797
1869
1818
1906
1849
1921
1872
1947
1929
2026
2018
2121
2084
2155
2107
2163
2093
2129
2025
2046
1951
1978
1899
1963
1904
1973
1921
1975
1917
1975
1914
1981
1923
1986
1926
1986
1923
1968
1904
1953
1883
1941
1886
1943
1895
1968
1905
1989
1953
2012
1932
1995
1902
1954
1875
1937
1873
1937
1878
1939
1877
1937
1872
1924
2062
2388
2429
2240
1522
1799
1830
1891
1845
1919
1859
1933
1872
1935
1907
1972
1911
1975
1930
2016
1986
2117
2096
2183
2128
2197
2127
2164
2071
2089
1977
2013
1939
1996
1936
1991
1936
1997
1941
1997
1926
1978
1915
1986
1925
1986
1920
1975
1911
1979
1913
1968
1897
1957
1881
1937
1870
1936
1879
1946
1886
1994
1947
1978
1920
1957
1870
1919
1863
1917
1843
1904
1837
1887
1821
1887
1837
1963
2198
2416
2387
1638
1527
1785
1739
1811
1759
1823
1756
1829
1789
1872
1823
1899
1829
1885
1845
1937
1909
2007
1983
2073
2007
2075
1987
1993
1883
1885
1748
1744
1648
1697
1645
1702
1633
1689
1628
1690
1614
1674
1606
1665
1615
1686
1619
1677
1617
1679
1613
1675
1616
1680
1618
1698
1631
1697
1636
1712
1663
1734
1691
1755
1727
1813
1741
1821
1731
1765
1715
1773
1718
1778
1717
1781
1717
1791
1730
1806
1804
2160
2404
2421
1745
1487
1678
1761
1710
1786
1739
1802
1754
1828
1779
1869
1829
1899
1850
1917
1897
1998
1984
2096
2061
2137
2067
2112
2013
2029
1914
1926
1826
1872
1797
1862
1796
1866
1808
1872
1811
1872
1797
1857
1796
1854
1793
1861
1802
1867
1802
1872
1808
1870
1808
1860
1799
1871
1815
1878
1815
1881
1817
1878
1809
1874
1824
1889
1825
1931
1892
1939
1881
1908
1799
1859
1807
1858
1791
1855
1779
1830
1769
1830
1776
1851
2029
2400
2423
2011
1371
1710
1707
1762
1712
1776
1723
1795
1749
1828
1775
1855
1802
1875
1823
1908
1890
2001
1994
2093
2047
2112
2027
2064
1968
1995
1888
1914
1821
1865
1807
1863
1816
1874
1808
1877
1818
1872
1800
1869
1823
1885
1824
1881
1819
1882
1806
1863
1801
1830
1761
1825
1773
1831
1764
1833
1767
1846
1790
1860
1800
1865
1817
1890
1834
1919
1862
1909
1866
1920
1835
1910
1857
1920
1863
1922
1856
1907
1848
1917
1851
1958
2186
2415
2404
1747
1523
1797
1745
1815
1766
1831
1772
1840
1777
1851
1805
1881
1813
1881
1832
1936
1917
2023
1995
2074
2007
2107
2032
2087
1993
2014
1906
1935
1841
1874
1819
1875
1820
1903
1847
1904
1837
1910
1853
1922
1856
1915
1847
1908
1840
1904
1837
1899
1823
1897
1843
1909
1843
1908
1855
1923
1859
1925
1858
1935
1883
1949
1891
1992
1935
1979
1915
1942
1878
1950
1883
1936
1867
1936
1871
1936
1871
1941
1878
2108
2352
2437
2313
1619
1717
1904
1845
1927
1865
1920
1867
1934
1897
1969
1908
1969
1906
1990
1958
2064
2035
2147
2112
2191
2138
2197
2117
2144
2032
2065
1958
1979
1875
1923
1840
1909
1855
1926
1863
1926
1852
1915
1856
1924
1870
1943
1888
1952
1888
1953
1891
1937
1872
1942
1882
1946
1875
1933
1878
1937
1883
1942
1879
1946
1889
1953
1886
1968
1915
1955
1889
1936
1839
1913
1840
1904
1829
1882
1802
1849
1792
1858
1794
1968
2208
2416
2320
1515
1566
1775
1711
1778
1715
1773
1712
1781
1710
1771
1714
1782
1714
1776
1726
1802
1774
1872
1843
1931
1882
1948
1859
1885
1785
1802
1707
1731
1655
1709
1633
1711
1655
1721
1662
1714
1648
1710
1643
1712
1646
1710
1654
1717
1662
1729
1658
1729
1664
1722
1653
1715
1664
1733
1666
1744
1685
1753
1701
1776
1717
1791
1770
1850
1772
1835
1744
1781
1735
1803
1737
1795
1740
1807
1746
1802
1750
1818
1850
2246
2415
2394
1530
1570
1706
1777
1731
1811
1750
1808
1760
1852
1808
1894
1840
1915
1854
1936
1910
2017
1999
2112
2080
2154
2095
2147
2061
2090
1969
1994
1904
1947
1872
1930
1872
1939
1882
1952
1895
1945
1882
1937
1878
1931
1868
1923
1870
1920
1856
1911
1840
1901
1826
1890
1833
1882
1821
1890
1838
1899
1840
1904
1857
1919
1856
1959
1913
1953
1893
1936
1830
1891
1830
1890
1819
1876
1808
1857
1798
1855
1796
1935
2214
2423
2387
1597
1520
1791
1737
1803
1759
1822
1761
1825
1777
1855
1791
1862
1805
1872
1819
1900
1894
1998
1968
2060
2003
2064
1991
2021
1924
1935
1840
1869
1776
1833
1773
1823
1762
1840
1776
1821
1769
1823
1761
1821
1772
1834
1771
1841
1790
1838
1766
1812
1744
1808
1724
1791
1724
1776
1736
1810
1760
1825
1771
1840
1822
1901
1826
1883
1801
1851
1793
1857
1795
1853
1789
1850
1777
1845
1799
1853
2001
2383
2414
2044
1413
1712
1729
1798
1757
1834
1779
1845
1783
1859
1813
1888
1823
1897
1858
1946
1919
2014
1994
2075
2015
2096
2022
2086
1991
2020
1916
1939
1836
1885
1821
1891
1831
1904
1839
1906
1869
1931
1877
1939
1871
1938
1866
1926
1858
1907
1835
1901
1840
1906
1858
1927
1872
1943
1897
1973
1921
2000
1965
2025
1936
1997
1904
1956
1904
1966
1899
1968
1898
1952
1898
1968
1904
1988
2182
2413
2427
1979
1587
1861
1847
1904
1850
1904
1841
1909
1851
1923
1879
1934
1862
1927
1887
1981
1953
2062
2028
2101
2059
2119
2046
2096
2011
2030
1920
1934
1842
1889
1829
1879
1842
1908
1855
1906
1831
1873
1835
1892
1837
1893
1834
1894
1822
1881
1825
1868
1807
1873
1834
1891
1843
1911
1853
1950
1936
1982
1910
1968
1872
1927
1888
1951
1907
1970
1909
1970
1919
1963
1916
2015
2231
2421
2420
1878
1589
1869
1838
1901
1859
1906
1860
1920
1872
1936
1904
1968
1915
1972
1930
2001
1990
2080
2067
2155
2111
2156
2086
2099
2003
2010
1935
1951
1875
1906
1848
1887
1839
1899
1855
1903
1831
1869
1810
1862
1802
1846
1799
1861
1799
1838
1777
1815
1769
1810
1757
1805
1744
1772
1703
1759
1732
1790
1719
1771
1669
1713
1667
1719
1651
1712
1652
1703
1643
1693
1648
1706
1809
2224
2402
2141
1277
1535
1603
1662
1627
1699
1649
1703
1665
1744
1713
1776
1744
1798
1757
1821
1811
1910
1904
1991
1965
2020
1975
1991
1913
1919
1833
1846
1776
1807
1746
1792
1745
1814
1780
1834
1786
1834
1787
1829
1783
1840
1797
1855
1809
1852
1796
1840
1786
1835
1792
1838
1796
1847
1805
1858
1831
1879
1850
1929
1886
1920
1875
1872
1822
1872
1819
1872
1819
1858
1811
1856
1811
1869
1824
2063
2377
2446
2270
1474
1675
1824
1777
1840
1806
1851
1806
1860
1835
1887
1856
1917
1875
1919
1883
1962
1968
2059
2045
2111
2066
2101
2042
2038
1968
1968
1879
1888
1830
1858
1813
1856
1819
1872
1837
1860
1812
1847
1799
1844
1812
1849
1808
1857
1806
1846
1802
1827
1776
1818
1762
1813
1776
1815
1785
1834
1807
1850
1818
1863
1863
1915
1854
1906
1846
1867
1825
1870
1817
1858
1817
1853
1806
1845
1802
1841
1863
2231
2411
2403
1595
1524
1723
1781
1759
1811
1786
1822
1797
1841
1831
1883
1845
1887
1863
1909
1905
1987
2014
2101
2074
2113
2090
2111
2059
2055
1970
1973
1906
1919
1877
1909
1874
1929
1899
1936
1913
1959
1925
1968
1936
1988
1952
1990
1961
1993
1936
1951
1905
1948
1899
1933
1904
1964
1941
1984
1957
1987
1968
2004
1981
2015
2022
2064
2015
2047
1997
1978
1955
1995
1958
1986
1963
1961
1931
1975
1936
1965
2019
2352
2434
2401
1680
1701
1839
1895
1873
1904
1878
1921
1899
1935
1930
1975
1937
1985
1983
2035
2031
2111
2125
2169
2147
2159
2107
2119
2064
2047
1968
1958
1878
1888
1840
1857
1835
1877
1843
1850
1814
1858
1799
1824
1791
1830
1779
1786
1744
1776
1712
1747
1711
1725
1707
1728
1702
1737
1718
1762
1734
1776
1739
1774
1787
1828
1751
1776
1723
1734
1703
1715
1667
1709
1669
1686
1659
1700
1680
1711
1840
2229
2384
1968
1347
1583
1655
1682
1651
1698
1670
1705
1699
1759
1773
1825
1793
1818
1805
1862
1897
1947
1951
2001
2002
2028
1994
1991
1927
1920
1861
1879
1845
1842
1817
1825
1777
1775
1742
1778
1771
1792
1779
1811
1781
1795
1776
1785
1776
1827
1840
1873
1853
1872
1853
1872
1833
1820
1792
1823
1827
1869
1878
1891
1852
1882
1865
1862
1873
1872
1840
1850
1838
1839
1810
1821
1802
1830
1815
1853
1835
1983
2285
2421
2293
1482
1638
1782
1761
1792
1810
1867
1887
1910
1883
1887
1869
1871
1836
1850
1872
1941
2013
2090
2114
2163
2160
2172
2130
2091
1984
1906
1837
1847
1873
1901
1885
1887
1879
1885
1854
1829
1791
1796
1792
1840
1856
1883
1898
1891
1861
1843
1819
1830
1837
1849
1825
1819
1803
1808
1798
1806
1776
1783
1795
1837
1837
1839
1843
1840
1794
1799
1722
1702
1685
1683
1690
1728
1722
1724
1692
1687
1648
1662
1872
2288
2387
1770
1280
1575
1653
1680
1680
1682
1682
1680
1699
1742
1758
1796
1818
1839
1870
1925
1970
1995
2097
2096
2037
2043
2023
1995
2096
2123
2098
2098
1967
1907
2002
2003
2029
2059
2038
2037
2096
2131
2000
1995
1942
1932
1902
1872
1818
1807
1840
1904
1888
1932
1919
1829
1855
1965
1933
1997
2017
2021
1981
2110
2142
2128
2257
2269
2235
2288
2262
2304
2251
2266
2359
2315
2277
2361
2332
2181
2192
2311
2391
2465
2492
2430
1917
1915
2054
2109
2077
2157
2087
2017
2024
2082
2094
2032
2038
2047
2063
2085
2111
2155
2182
2249
2277
2327
